wavelength (nm), n, k
2.06641969e2, 1.36607500, 2.41844000
2.07333079e2, 1.36192000, 2.44042300
2.08028828e2, 1.36593800, 2.45171100
2.08729261e2, 1.36407500, 2.46467100
2.09434428e2, 1.36221300, 2.48013800
2.10144375e2, 1.36197100, 2.49276500
2.10859152e2, 1.36378700, 2.50441700
2.11578808e2, 1.36198400, 2.52408800
2.12303393e2, 1.36324800, 2.53806800
2.13032958e2, 1.36211800, 2.54951500
2.13767554e2, 1.36417500, 2.57207200
2.14507234e2, 1.36761700, 2.58869400
2.15252051e2, 1.36813300, 2.60841100
2.16002058e2, 1.37174200, 2.62492500
2.16757310e2, 1.37652900, 2.64330600
2.17517862e2, 1.37876100, 2.66603800
2.18283770e2, 1.38597000, 2.68801500
2.19055091e2, 1.39174700, 2.70942700
2.19831882e2, 1.39665500, 2.73181600
2.20614202e2, 1.40577600, 2.75684500
2.21402109e2, 1.41203300, 2.77959900
2.22195665e2, 1.42171800, 2.80355000
2.22994930e2, 1.43085500, 2.82694200
2.23799966e2, 1.44107700, 2.85215200
2.24610836e2, 1.45145800, 2.87883700
2.25427602e2, 1.46164400, 2.90330200
2.26250331e2, 1.47496800, 2.93104000
2.27079087e2, 1.48734400, 2.95593800
2.27913936e2, 1.50180600, 2.98882100
2.28754947e2, 1.51772500, 3.01505400
2.29602188e2, 1.53251300, 3.04459500
2.30455727e2, 1.55164100, 3.07322400
2.31315637e2, 1.56858600, 3.10386900
2.32181987e2, 1.58925100, 3.13442100
2.33054852e2, 1.61012500, 3.16508600
2.33934304e2, 1.63212800, 3.19917400
2.34820419e2, 1.65303300, 3.23252300
2.35713272e2, 1.67921600, 3.26581000
2.36612941e2, 1.70387300, 3.30345600
2.37519504e2, 1.73209900, 3.33743500
2.38433041e2, 1.76292300, 3.37753600
2.39353632e2, 1.79470600, 3.41527200
2.40281359e2, 1.82900400, 3.45443700
2.41216306e2, 1.86618900, 3.49465300
2.42158557e2, 1.90703700, 3.53617700
2.43108199e2, 1.95126700, 3.57907600
2.44065318e2, 2.00012900, 3.62082200
2.45030003e2, 2.05279000, 3.66346200
2.46002344e2, 2.11356000, 3.70622400
2.46982433e2, 2.17882500, 3.74823300
2.47970363e2, 2.24985100, 3.78674400
2.48966227e2, 2.32901400, 3.82203900
2.49970124e2, 2.41457500, 3.85405000
2.50982148e2, 2.50356500, 3.87775200
2.52002401e2, 2.59543400, 3.89439400
2.53030982e2, 2.68613800, 3.90383600
2.54067994e2, 2.77885100, 3.91105000
2.55113542e2, 2.87217000, 3.91478600
2.56167730e2, 2.97112700, 3.91722400
2.57230667e2, 3.07556900, 3.91276100
2.58302461e2, 3.18679900, 3.89850400
2.59383224e2, 3.30004100, 3.87134500
2.60473070e2, 3.41484400, 3.83264500
2.61572112e2, 3.52350600, 3.78039200
2.62680469e2, 3.63025900, 3.71832400
2.63798258e2, 3.73127700, 3.64508800
2.64925601e2, 3.82491800, 3.56050500
2.66062621e2, 3.90696300, 3.46565700
2.67209442e2, 3.97750000, 3.36181000
2.68366193e2, 4.03204600, 3.25443700
2.69533003e2, 4.07169600, 3.14648500
2.70710003e2, 4.09887700, 3.04002600
2.71897327e2, 4.11507600, 2.93839000
2.73095113e2, 4.12008500, 2.84211000
2.74303498e2, 4.11747400, 2.75093200
2.75522625e2, 4.10726200, 2.66789500
2.76752637e2, 4.09394400, 2.59076200
2.77993680e2, 4.07545800, 2.52140400
2.79245904e2, 4.05465600, 2.45849000
2.80509460e2, 4.03265700, 2.40182600
2.81784503e2, 4.00901200, 2.35048100
2.83071190e2, 3.98510900, 2.30384200
2.84369682e2, 3.96172200, 2.26177200
2.85680141e2, 3.93806500, 2.22428300
2.87002734e2, 3.91623000, 2.19038500
2.88337631e2, 3.89401300, 2.15906300
2.89685003e2, 3.87271900, 2.13171300
2.91045027e2, 3.85262800, 2.10644300
2.92417880e2, 3.83341400, 2.08355100
2.93803747e2, 3.81478900, 2.06356700
2.95202813e2, 3.79776900, 2.04598800
2.96615266e2, 3.78255900, 2.02917500
2.98041301e2, 3.76841400, 2.01489500
2.99481114e2, 3.75463500, 2.00183900
3.00934906e2, 3.74232100, 1.98954700
3.02402881e2, 3.73017700, 1.97955800
3.03885248e2, 3.72020200, 1.97030600
3.05382220e2, 3.71064700, 1.96276000
3.06894013e2, 3.70249000, 1.95581000
3.08420849e2, 3.69542400, 1.94965800
3.09962953e2, 3.68832900, 1.94476500
3.11520556e2, 3.68261900, 1.94078500
3.13093892e2, 3.67821900, 1.93748900
3.14683201e2, 3.67453300, 1.93510900
3.16288728e2, 3.67289600, 1.93358200
3.17910721e2, 3.67065800, 1.93298800
3.19549436e2, 3.67027400, 1.93319300
3.21205133e2, 3.67042300, 1.93436000
3.22878076e2, 3.67261500, 1.93619600
3.24568537e2, 3.67593500, 1.93836900
3.26276793e2, 3.68007300, 1.94198600
3.28003125e2, 3.68586600, 1.94562600
3.29747823e2, 3.69326700, 1.95030500
3.31511180e2, 3.70175100, 1.95599300
3.33293498e2, 3.71207600, 1.96200100
3.35095085e2, 3.72435400, 1.96937500
3.36916254e2, 3.73845700, 1.97752600
3.38757326e2, 3.75478400, 1.98632400
3.40618630e2, 3.77323300, 1.99612300
3.42500501e2, 3.79510000, 2.00679700
3.44403281e2, 3.82150700, 2.01745900
3.46327322e2, 3.85177400, 2.02852000
3.48272981e2, 3.88812300, 2.03864100
3.50240625e2, 3.93077800, 2.04700700
3.52230629e2, 3.97962700, 2.05145000
3.54243375e2, 4.03394400, 2.04885000
3.56279257e2, 4.09083900, 2.03780400
3.58338674e2, 4.14768100, 2.01713600
3.60422039e2, 4.20132400, 1.98962000
3.62529770e2, 4.25076300, 1.95675600
3.64662298e2, 4.29397700, 1.92157000
3.66820063e2, 4.33561800, 1.88679100
3.69003516e2, 4.37605000, 1.85366400
3.71213118e2, 4.41962200, 1.82064800
3.73449341e2, 4.46822300, 1.78719600
3.75712671e2, 4.52522300, 1.74848000
3.78003601e2, 4.58702300, 1.69661000
3.80322642e2, 4.64825800, 1.62876500
3.82670313e2, 4.70051600, 1.54189700
3.85047147e2, 4.73690800, 1.44301700
3.87453692e2, 4.75350900, 1.33959200
3.89890507e2, 4.75225400, 1.23923400
3.92358169e2, 4.73689200, 1.14768200
3.94857265e2, 4.71440700, 1.06311800
3.97388402e2, 4.68553400, 9.90990000e-1
3.99952198e2, 4.65390300, 9.26633000e-1
4.02549290e2, 4.62052700, 8.67606000e-1
4.05180331e2, 4.58715700, 8.13400000e-1
4.07845991e2, 4.55237600, 7.65616000e-1
4.10546958e2, 4.51718500, 7.23221000e-1
4.13283938e2, 4.48295300, 6.83894000e-1
4.16057655e2, 4.44933100, 6.50906000e-1
4.18868856e2, 4.41717000, 6.19621000e-1
4.21718304e2, 4.38710000, 5.87958000e-1
4.24606785e2, 4.35698700, 5.60417000e-1
4.27535108e2, 4.32779700, 5.34196000e-1
4.30504102e2, 4.29958100, 5.09222000e-1
4.33514620e2, 4.27192400, 4.87916000e-1
4.36567540e2, 4.24484700, 4.67444000e-1
4.39663763e2, 4.21969500, 4.47928000e-1
4.42804219e2, 4.19465000, 4.28680000e-1
4.45989861e2, 4.17064900, 4.12486000e-1
4.49221671e2, 4.14691300, 3.96229000e-1
4.52500662e2, 4.12474800, 3.79811000e-1
4.55827872e2, 4.10186000, 3.67931000e-1
4.59204375e2, 4.08049700, 3.55479000e-1
4.62631273e2, 4.06019800, 3.42568000e-1
4.66109704e2, 4.03913600, 3.31979000e-1
4.69640838e2, 4.02105500, 3.19081000e-1
4.73225883e2, 4.00053500, 3.09280000e-1
4.76866082e2, 3.98516200, 2.92655000e-1
4.80562718e2, 3.96665400, 2.83212000e-1
4.84317114e2, 3.95066000, 2.71499000e-1
4.88130635e2, 3.93428600, 2.61408000e-1
4.92004688e2, 3.91789300, 2.53297000e-1
4.95940725e2, 3.90325100, 2.45263000e-1
4.99940247e2, 3.88840000, 2.37770000e-1
5.04004802e2, 3.87535400, 2.31091000e-1
5.08135989e2, 3.86285900, 2.23058000e-1
5.12335460e2, 3.85106800, 2.14542000e-1
5.16604922e2, 3.83758900, 2.04766000e-1
5.20946140e2, 3.82373000, 1.96250000e-1
5.25360938e2, 3.80894800, 1.86812000e-1
5.29851202e2, 3.79308500, 1.78424000e-1
5.34418885e2, 3.77698000, 1.70402000e-1
5.39066006e2, 3.76066900, 1.64004000e-1
5.43794655e2, 3.74633000, 1.58100000e-1
5.48606997e2, 3.73207000, 1.51523000e-1
5.53505274e2, 3.71894200, 1.45543000e-1
5.58491808e2, 3.70614200, 1.39188000e-1
5.63569006e2, 3.69559500, 1.33143000e-1
5.68739364e2, 3.68571500, 1.24900000e-1
5.74005469e2, 3.67599600, 1.16143000e-1
5.79370006e2, 3.66640600, 1.07562000e-1
5.84835761e2, 3.66042000, 1.00435000e-1
5.90405625e2, 3.66429400, 8.78600000e-2
5.96082602e2, 3.66373200, 5.26230000e-2
6.01869812e2, 3.63574300, 2.00700000e-2
6.07770497e2, 3.60663700, 4.06300000e-3
6.13788026e2, 3.57807800, 9.55000000e-4
6.19925906e2, 3.55793300, 1.71900000e-3
6.26187784e2, 3.53791000, 1.19200000e-3
6.32577456e2, 3.52204300, 3.20600000e-3
6.39098873e2, 3.50775700, 2.22700000e-3
6.45756153e2, 3.49301800, 9.44000000e-4
6.52553586e2, 3.47694500, 3.20000000e-5
6.59495645e2, 3.46210100, 2.42200000e-3
6.66586996e2, 3.45127600, 3.54600000e-3
6.73832507e2, 3.43948600, 2.38100000e-3
6.81237260e2, 3.42779500, 1.27800000e-3
6.88806563e2, 3.41693400, 1.17000000e-4
6.96545962e2, 3.40706100, 0.00000000
7.04461257e2, 3.39672200, 0.00000000
7.12558513e2, 3.38526700, 0.00000000
7.20844077e2, 3.37549700, 0.00000000
7.29324596e2, 3.36810400, 0.00000000
7.38007031e2, 3.36055500, 0.00000000
7.46898682e2, 3.35203900, 0.00000000
7.56007203e2, 3.34338500, 0.00000000
7.65340625e2, 3.33636400, 0.00000000
7.74907383e2, 3.32851900, 0.00000000
7.84716337e2, 3.32004700, 0.00000000
7.94776803e2, 3.31197800, 0.00000000
8.05098580e2, 3.30334600, 0.00000000
8.15691982e2, 3.29302000, 0.00000000
8.26567875e2, 3.28329100, 0.00000000
