wavelength (nm), n, k
1.80000000e2, 1.20774000, 2.06520500
1.90000000e2, 1.31675500, 2.26006500
2.00000000e2, 1.48000000, 2.45000000
2.10000000e2, 1.72091200, 2.59833800
2.20000000e2, 2.01695100, 2.66775000
2.30000000e2, 2.32147100, 2.60421300
2.40000000e2, 2.54161000, 2.40075800
2.50000000e2, 2.57257900, 2.15419500
2.60000000e2, 2.48046400, 2.08827400
2.70000000e2, 2.41454100, 2.05297500
2.80000000e2, 2.37225400, 2.04366000
2.90000000e2, 2.35104400, 2.05569200
3.00000000e2, 2.34835400, 2.08443500
3.10000000e2, 2.36162500, 2.12525200
3.20000000e2, 2.38830100, 2.17350600
3.30000000e2, 2.42582200, 2.22456100
3.40000000e2, 2.47163600, 2.27382900
3.50000000e2, 2.52297000, 2.31370500
3.60000000e2, 2.57612200, 2.32372500
3.70000000e2, 2.63031400, 2.32386900
3.80000000e2, 2.68343000, 2.31562000
3.90000000e2, 2.73341100, 2.30004800
4.00000000e2, 2.77636900, 2.27817000
4.10000000e2, 2.80551900, 2.25069400
4.20000000e2, 2.82726400, 2.21927800
4.30000000e2, 2.84173500, 2.18511500
4.40000000e2, 2.84888500, 2.14945600
4.50000000e2, 2.84830500, 2.11472800
4.60000000e2, 2.83925200, 2.08447700
4.70000000e2, 2.82317200, 2.05488300
4.80000000e2, 2.80048000, 2.02585600
4.90000000e2, 2.77141500, 1.99732400
5.00000000e2, 2.73760300, 1.96757400
5.10000000e2, 2.70076400, 1.93472200
5.20000000e2, 2.65743300, 1.90371200
5.30000000e2, 2.60690000, 1.87586200
5.40000000e2, 2.54870600, 1.85242100
5.50000000e2, 2.47794000, 1.83490800
5.60000000e2, 2.39117900, 1.82474900
5.70000000e2, 2.29824700, 1.82256800
5.80000000e2, 2.20136800, 1.82945100
5.90000000e2, 2.10260700, 1.84628900
6.00000000e2, 2.00682200, 1.87780700
6.10000000e2, 1.91713000, 1.92634700
6.20000000e2, 1.83012100, 1.98532700
6.30000000e2, 1.74645800, 2.05373500
6.40000000e2, 1.66674500, 2.13043100
6.50000000e2, 1.59194400, 2.21571900
6.60000000e2, 1.52271600, 2.30868400
6.70000000e2, 1.45906100, 2.40575200
6.80000000e2, 1.40148500, 2.50508600
6.90000000e2, 1.35014700, 2.60532300
7.00000000e2, 1.30884200, 2.70028000
7.10000000e2, 1.27769600, 2.78859300
7.20000000e2, 1.25196300, 2.87518500
7.30000000e2, 1.23064600, 2.96012000
7.40000000e2, 1.21271500, 3.04360800
7.50000000e2, 1.19474000, 3.12641000
7.60000000e2, 1.17622200, 3.20853600
7.70000000e2, 1.15927500, 3.28967300
7.80000000e2, 1.14378800, 3.36961700
7.90000000e2, 1.12966300, 3.44842500
8.00000000e2, 1.11703800, 3.52591800
8.10000000e2, 1.10574500, 3.60215500
8.20000000e2, 1.09544800, 3.67732800
8.30000000e2, 1.08598600, 3.75149200
8.40000000e2, 1.07719600, 3.82470500
8.50000000e2, 1.06852300, 3.89686800
8.60000000e2, 1.06003000, 3.96812700
8.70000000e2, 1.05196400, 4.03871700
8.80000000e2, 1.04432000, 4.10868800
8.90000000e2, 1.03706900, 4.17837100
9.00000000e2, 1.03022300, 4.24768400
9.10000000e2, 1.02360400, 4.31915600
9.20000000e2, 1.01720800, 4.39292100
9.30000000e2, 1.01110100, 4.46818200
9.40000000e2, 1.00534300, 4.54414100
9.50000000e2, 1.00000000, 4.62000000
9.60000000e2, 9.96440000e-1, 4.68717600
9.70000000e2, 9.93438000e-1, 4.75254900
9.80000000e2, 9.90878000e-1, 4.81638700
9.90000000e2, 9.88645000e-1, 4.87895800
1.00000000e3, 9.86624000e-1, 4.94053100
1.01000000e3, 9.84698000e-1, 5.00137300
1.02000000e3, 9.82751000e-1, 5.06175400
1.03000000e3, 9.80669000e-1, 5.12194100
1.04000000e3, 9.76805000e-1, 5.18500000
1.05000000e3, 9.71979000e-1, 5.24948900
1.06000000e3, 9.66894000e-1, 5.31418000
1.07000000e3, 9.61601000e-1, 5.37903600
1.08000000e3, 9.56152000e-1, 5.44401900
1.09000000e3, 9.50599000e-1, 5.50909000
1.10000000e3, 9.44993000e-1, 5.57421300
1.11000000e3, 9.39386000e-1, 5.63934800
1.12000000e3, 9.33831000e-1, 5.70445800
1.13000000e3, 9.28819000e-1, 5.76879600
1.14000000e3, 9.24996000e-1, 5.83136900
1.15000000e3, 9.21325000e-1, 5.89389200
1.16000000e3, 9.17773000e-1, 5.95645900
1.17000000e3, 9.14312000e-1, 6.01916600
1.18000000e3, 9.10909000e-1, 6.08210700
1.19000000e3, 9.07535000e-1, 6.14537900
1.20000000e3, 9.04157000e-1, 6.20907400
1.21000000e3, 9.00746000e-1, 6.27328900
1.22000000e3, 8.97270000e-1, 6.33811800
1.23000000e3, 8.93698000e-1, 6.40365700
1.24000000e3, 8.90000000e-1, 6.47000000
1.25000000e3, 8.85982000e-1, 6.53822000
1.26000000e3, 8.81984000e-1, 6.60618400
1.27000000e3, 8.78062000e-1, 6.67312000
1.28000000e3, 8.74242000e-1, 6.73870400
1.29000000e3, 8.70494000e-1, 6.80360100
1.30000000e3, 8.66816000e-1, 6.86803800
1.31000000e3, 8.63201000e-1, 6.93223700
1.32000000e3, 8.59577000e-1, 6.99654900
1.33000000e3, 8.55398000e-1, 7.06216000
1.34000000e3, 8.51392000e-1, 7.12799200
1.35000000e3, 8.47688000e-1, 7.19403300
1.36000000e3, 8.44412000e-1, 7.26027800
1.37000000e3, 8.41691000e-1, 7.32671600
1.38000000e3, 8.39975000e-1, 7.39340600
1.39000000e3, 8.40310000e-1, 7.46052900
1.40000000e3, 8.41317000e-1, 7.52776500
1.41000000e3, 8.42869000e-1, 7.59505200
1.42000000e3, 8.44837000e-1, 7.66233000
1.43000000e3, 8.47093000e-1, 7.72953500
1.44000000e3, 8.49509000e-1, 7.79660700
1.45000000e3, 8.50901000e-1, 7.86311500
1.46000000e3, 8.52037000e-1, 7.92931100
1.47000000e3, 8.53233000e-1, 7.99528800
1.48000000e3, 8.54536000e-1, 8.06104600
1.49000000e3, 8.55996000e-1, 8.12658400
1.50000000e3, 8.57661000e-1, 8.19190400
1.51000000e3, 8.59581000e-1, 8.25700700
1.52000000e3, 8.62505000e-1, 8.32161900
1.53000000e3, 8.65905000e-1, 8.38596600
1.54000000e3, 8.69559000e-1, 8.45015300
1.55000000e3, 8.73420000e-1, 8.51421700
1.56000000e3, 8.77442000e-1, 8.57819700
1.57000000e3, 8.81578000e-1, 8.64212900
1.58000000e3, 8.85779000e-1, 8.70605100
1.59000000e3, 8.90000000e-1, 8.77000000
1.60000000e3, 8.93536000e-1, 8.83483400
1.61000000e3, 8.97043000e-1, 8.89971300
1.62000000e3, 9.00533000e-1, 8.96460100
1.63000000e3, 9.04019000e-1, 9.02946100
1.64000000e3, 9.07515000e-1, 9.09425500
1.65000000e3, 9.11031000e-1, 9.15895000
1.66000000e3, 9.14582000e-1, 9.22350600
1.67000000e3, 9.18180000e-1, 9.28788700
1.68000000e3, 9.22005000e-1, 9.35160000
1.69000000e3, 9.26066000e-1, 9.41462300
1.70000000e3, 9.30183000e-1, 9.47743700
1.71000000e3, 9.34345000e-1, 9.54007100
1.72000000e3, 9.38540000e-1, 9.60255400
1.73000000e3, 9.42755000e-1, 9.66491900
1.74000000e3, 9.46980000e-1, 9.72719400
1.75000000e3, 9.51200000e-1, 9.78940900
1.76000000e3, 9.55406000e-1, 9.85159400
1.77000000e3, 9.59584000e-1, 9.91378000
1.78000000e3, 9.63312000e-1, 9.97613300
1.79000000e3, 9.66957000e-1, 1.00385600e1
1.80000000e3, 9.70578000e-1, 1.01010600e1
1.81000000e3, 9.74189000e-1, 1.01636600e1
1.82000000e3, 9.77805000e-1, 1.02263800e1
1.83000000e3, 9.81440000e-1, 1.02892400e1
1.84000000e3, 9.85108000e-1, 1.03522600e1
1.85000000e3, 9.88823000e-1, 1.04154700e1
1.86000000e3, 9.92601000e-1, 1.04788800e1
1.87000000e3, 9.96455000e-1, 1.05425200e1
1.88000000e3, 1.00042800, 1.06066100e1
1.89000000e3, 1.00477000, 1.06728400e1
1.90000000e3, 1.00922100, 1.07392900e1
1.91000000e3, 1.01378400, 1.08059000e1
1.92000000e3, 1.01845900, 1.08725800e1
1.93000000e3, 1.02324700, 1.09392700e1
1.94000000e3, 1.02814900, 1.10058900e1
1.95000000e3, 1.03316500, 1.10723600e1
1.96000000e3, 1.03829700, 1.11386200e1
1.97000000e3, 1.04354600, 1.12045900e1
1.98000000e3, 1.04891200, 1.12701900e1
1.99000000e3, 1.05439600, 1.13353500e1
2.00000000e3, 1.06000000, 1.14000000e1
2.01000000e3, 1.06601800, 1.14608700e1
2.02000000e3, 1.07215300, 1.15211300e1
2.03000000e3, 1.07839400, 1.15808100e1
2.04000000e3, 1.08473300, 1.16399700e1
2.05000000e3, 1.09115900, 1.16986300e1
2.06000000e3, 1.09766400, 1.17568500e1
2.07000000e3, 1.10423700, 1.18146500e1
2.08000000e3, 1.11086900, 1.18720900e1
2.09000000e3, 1.11755000, 1.19291900e1
2.10000000e3, 1.12427000, 1.19860100e1
2.11000000e3, 1.13102100, 1.20425800e1
2.12000000e3, 1.13779200, 1.20989400e1
2.13000000e3, 1.14457400, 1.21551400e1
2.14000000e3, 1.15127500, 1.22112500e1
2.15000000e3, 1.15764200, 1.22674400e1
2.16000000e3, 1.16399800, 1.23235900e1
2.17000000e3, 1.17034200, 1.23797200e1
2.18000000e3, 1.17667800, 1.24358700e1
2.19000000e3, 1.18300500, 1.24920700e1
2.20000000e3, 1.18932700, 1.25483600e1
2.21000000e3, 1.19564400, 1.26047700e1
2.22000000e3, 1.20195800, 1.26613400e1
2.23000000e3, 1.20827000, 1.27181100e1
2.24000000e3, 1.21458200, 1.27750900e1
2.25000000e3, 1.22089600, 1.28323400e1
2.26000000e3, 1.22721200, 1.28898800e1
2.27000000e3, 1.23353300, 1.29477500e1
2.28000000e3, 1.23986000, 1.30059800e1
2.29000000e3, 1.24619500, 1.30646200e1
2.30000000e3, 1.25253900, 1.31236800e1
2.31000000e3, 1.25889300, 1.31832100e1
2.32000000e3, 1.26525900, 1.32432400e1
2.33000000e3, 1.27163900, 1.33038100e1
2.34000000e3, 1.27803400, 1.33649500e1
2.35000000e3, 1.28444600, 1.34266900e1
2.36000000e3, 1.29087500, 1.34890700e1
2.37000000e3, 1.29732500, 1.35521200e1
2.38000000e3, 1.30379500, 1.36158800e1
2.39000000e3, 1.31028900, 1.36803900e1
2.40000000e3, 1.31680600, 1.37456700e1
2.41000000e3, 1.32334900, 1.38117600e1
2.42000000e3, 1.32992000, 1.38787000e1
2.43000000e3, 1.33651900, 1.39465100e1
2.44000000e3, 1.34314900, 1.40152400e1
2.45000000e3, 1.34981000, 1.40849200e1
2.46000000e3, 1.35650500, 1.41555900e1
2.47000000e3, 1.36323400, 1.42272700e1
2.48000000e3, 1.37000000, 1.43000000e1
