wavelength (nm), n, k
1.96801875e2, 2.46493400, 1.97519200
1.97193131e2, 2.46975500, 1.95604800
1.97585946e2, 2.47390500, 1.93702300
1.97980329e2, 2.47739500, 1.91814800
1.98376290e2, 2.48024200, 1.89944700
1.98773838e2, 2.48246000, 1.88094700
1.99172982e2, 2.48406800, 1.86267300
1.99573732e2, 2.48508300, 1.84464400
1.99976099e2, 2.48552400, 1.82688400
2.00380091e2, 2.48540900, 1.80941000
2.00785719e2, 2.48476000, 1.79224200
2.01192992e2, 2.48359400, 1.77539600
2.01601921e2, 2.48193300, 1.75888600
2.02012515e2, 2.47979600, 1.74272600
2.02424786e2, 2.47720400, 1.72692900
2.02838742e2, 2.47417700, 1.71150700
2.03254396e2, 2.47073500, 1.69646800
2.03671756e2, 2.46689700, 1.68182200
2.04090833e2, 2.46268400, 1.66757800
2.04511639e2, 2.45811400, 1.65374000
2.04934184e2, 2.45320700, 1.64031700
2.05358478e2, 2.44798100, 1.62731300
2.05784533e2, 2.44245300, 1.61473000
2.06212360e2, 2.43664300, 1.60257500
2.06641969e2, 2.43056500, 1.59084900
2.07073372e2, 2.42423800, 1.57955500
2.07506580e2, 2.41767700, 1.56869400
2.07941604e2, 2.41089900, 1.55826700
2.08378456e2, 2.40391700, 1.54827600
2.08817147e2, 2.39674800, 1.53872100
2.09257690e2, 2.38940500, 1.52960300
2.09700095e2, 2.38190200, 1.52092000
2.10144375e2, 2.37425200, 1.51267200
2.10590541e2, 2.36646800, 1.50486000
2.11038606e2, 2.35856300, 1.49748100
2.11488582e2, 2.35054800, 1.49053700
2.11940481e2, 2.34243600, 1.48402500
2.12394315e2, 2.33423700, 1.47794400
2.12850097e2, 2.32596300, 1.47229400
2.13307839e2, 2.31762400, 1.46707400
2.13767554e2, 2.30923100, 1.46228300
2.14229255e2, 2.30079300, 1.45791900
2.14692955e2, 2.29232100, 1.45398300
2.15158666e2, 2.28382500, 1.45047400
2.15626402e2, 2.27531300, 1.44739000
2.16096177e2, 2.26679700, 1.44473200
2.16568002e2, 2.25828400, 1.44249900
2.17041893e2, 2.24978400, 1.44069200
2.17517862e2, 2.24130700, 1.43931000
2.17995923e2, 2.23286200, 1.43835300
2.18476090e2, 2.22445800, 1.43782300
2.18958378e2, 2.21610500, 1.43771900
2.19442799e2, 2.20781100, 1.43804200
2.19929368e2, 2.19958800, 1.43879400
2.20418100e2, 2.19144400, 1.43997500
2.20909009e2, 2.18339100, 1.44158700
2.21402109e2, 2.17543800, 1.44363000
2.21897416e2, 2.16759600, 1.44610800
2.22394944e2, 2.15987700, 1.44902100
2.22894708e2, 2.15229100, 1.45237200
2.23396723e2, 2.14485200, 1.45616200
2.23901005e2, 2.13757100, 1.46039200
2.24407568e2, 2.13046200, 1.46506600
2.24916429e2, 2.12353800, 1.47018500
2.25427602e2, 2.11681400, 1.47575100
2.25941105e2, 2.11030500, 1.48176600
2.26456952e2, 2.10402600, 1.48823100
2.26975160e2, 2.09799500, 1.49514900
2.27495745e2, 2.09222800, 1.50251900
2.28018724e2, 2.08674400, 1.51034300
2.28544113e2, 2.08156200, 1.51862100
2.29071928e2, 2.07670300, 1.52735300
2.29602188e2, 2.07218700, 1.53653900
2.30134907e2, 2.06803700, 1.54617600
2.30670105e2, 2.06427600, 1.55626200
2.31207797e2, 2.06092800, 1.56679400
2.31748002e2, 2.05801900, 1.57776700
2.32290738e2, 2.05557500, 1.58917500
2.32836021e2, 2.05362400, 1.60101200
2.33383871e2, 2.05219500, 1.61326800
2.33934304e2, 2.05131600, 1.62593100
2.34487341e2, 2.05101800, 1.63899100
2.35042998e2, 2.05133200, 1.65243100
2.35601295e2, 2.05229000, 1.66623500
2.36162250e2, 2.05392500, 1.68038200
2.36725883e2, 2.05626900, 1.69484900
2.37292213e2, 2.05935400, 1.70961100
2.37861259e2, 2.06321400, 1.72463800
2.38433041e2, 2.06788000, 1.73989800
2.39007578e2, 2.07338500, 1.75535400
2.39584891e2, 2.07975700, 1.77096600
2.40165000e2, 2.08702500, 1.78668900
2.40747925e2, 2.09521700, 1.80247800
2.41333686e2, 2.10435300, 1.81827700
2.41922305e2, 2.11445600, 1.83403300
2.42513802e2, 2.12554100, 1.84968400
2.43108199e2, 2.13761900, 1.86516800
2.43705516e2, 2.15069700, 1.88041800
2.44305776e2, 2.16477300, 1.89536600
2.44909000e2, 2.17984200, 1.90993900
2.45515210e2, 2.19589000, 1.92406600
2.46124429e2, 2.21289300, 1.93767300
2.46736679e2, 2.23082300, 1.95069000
2.47351983e2, 2.24964100, 1.96304500
2.47970363e2, 2.26929900, 1.97467400
2.48591842e2, 2.28965400, 1.98651700
2.49216445e2, 2.31083400, 1.99652600
2.49844194e2, 2.33266500, 2.00564200
2.50475114e2, 2.35507300, 2.01383100
2.51109228e2, 2.37797900, 2.02106300
2.51746561e2, 2.40129800, 2.02732200
2.52387137e2, 2.42494800, 2.03260500
2.53030982e2, 2.44884500, 2.03692100
2.53678120e2, 2.47291500, 2.04028800
2.54328577e2, 2.49709000, 2.04274100
2.54982378e2, 2.52130300, 2.04431900
2.55639549e2, 2.54550800, 2.04507400
2.56300116e2, 2.56966400, 2.04505900
2.56964106e2, 2.59375100, 2.04433500
2.57631546e2, 2.61775900, 2.04295900
2.58302461e2, 2.64169000, 2.04098800
2.58976880e2, 2.66556500, 2.03847000
2.59654830e2, 2.68941400, 2.03544500
2.60336339e2, 2.71327600, 2.03194200
2.61021434e2, 2.73720000, 2.02797600
2.61710145e2, 2.76123700, 2.02354500
2.62402500e2, 2.78544000, 2.01863300
2.63098528e2, 2.80985700, 2.01320600
2.63798258e2, 2.83453400, 2.00721600
2.64501720e2, 2.85950600, 2.00059700
2.65208944e2, 2.88479200, 1.99327500
2.65919960e2, 2.91040000, 1.98516100
2.66634798e2, 2.93631700, 1.97616200
2.67353491e2, 2.96251400, 1.96618000
2.68076068e2, 2.98894100, 1.95511800
2.68802561e2, 3.01552600, 1.94288100
2.69533003e2, 3.04217900, 1.92938300
2.70267425e2, 3.06879100, 1.91455200
2.71005861e2, 3.09523800, 1.89832900
2.71748343e2, 3.12138300, 1.88067300
2.72494904e2, 3.14707900, 1.86156500
2.73245579e2, 3.17217300, 1.84100600
2.74000401e2, 3.19650900, 1.81902500
2.74759405e2, 3.21993800, 1.79567000
2.75522625e2, 3.24231400, 1.77101300
2.76290098e2, 3.26350200, 1.74514800
2.77061858e2, 3.28338400, 1.71818600
2.77837941e2, 3.30185700, 1.69025400
2.78618385e2, 3.31883500, 1.66149100
2.79403225e2, 3.33425800, 1.63204300
2.80192500e2, 3.34808200, 1.60206200
2.80986247e2, 3.36028600, 1.57170200
2.81784503e2, 3.37086800, 1.54111300
2.82587308e2, 3.37984500, 1.51044100
2.83394700e2, 3.38725000, 1.47982200
2.84206719e2, 3.39313100, 1.44938500
2.85023405e2, 3.39754900, 1.41924700
2.85844798e2, 3.40057400, 1.38951400
2.86670939e2, 3.40228300, 1.36027600
2.87501870e2, 3.40276000, 1.33161200
2.88337631e2, 3.40209100, 1.30359200
2.89178265e2, 3.40036400, 1.27626600
2.90023816e2, 3.39766900, 1.24968300
2.90874326e2, 3.39409100, 1.22387300
2.91729838e2, 3.38895300, 1.19852700
2.92590398e2, 3.38387100, 1.17434000
2.93456050e2, 3.37815100, 1.15097100
2.94326840e2, 3.37186900, 1.12842400
2.95202813e2, 3.36509400, 1.10669400
2.96084015e2, 3.35789100, 1.08576900
2.96970494e2, 3.35032000, 1.06564000
2.97862297e2, 3.34243700, 1.04628800
2.98759473e2, 3.33429300, 1.02769500
2.99662070e2, 3.32593600, 1.00983900
3.00570136e2, 3.31740900, 9.92698000e-1
3.01483724e2, 3.30874900, 9.76248000e-1
3.02402881e2, 3.29999300, 9.60464000e-1
3.03327661e2, 3.29117200, 9.45323000e-1
3.04258114e2, 3.28231400, 9.30798000e-1
3.05194292e2, 3.27344600, 9.16865000e-1
3.06136250e2, 3.26459000, 9.03498000e-1
3.07084040e2, 3.25576700, 8.90674000e-1
3.08037717e2, 3.24699400, 8.78368000e-1
3.08997337e2, 3.23828800, 8.66559000e-1
3.09962953e2, 3.22966300, 8.55220000e-1
3.10934624e2, 3.22113100, 8.44333000e-1
3.11912406e2, 3.21270300, 8.33875000e-1
3.12896357e2, 3.20438800, 8.23825000e-1
3.13886535e2, 3.19619500, 8.14165000e-1
3.14883000e2, 3.18813100, 8.04874000e-1
3.15885812e2, 3.18020100, 7.95935000e-1
3.16895032e2, 3.17241100, 7.87331000e-1
3.17910721e2, 3.16476500, 7.79044000e-1
3.18932942e2, 3.15726600, 7.71058000e-1
3.19961758e2, 3.14991800, 7.63359000e-1
3.20997233e2, 3.14272300, 7.55932000e-1
3.22039432e2, 3.13568200, 7.48762000e-1
3.23088420e2, 3.12879700, 7.41836000e-1
3.24144265e2, 3.12206900, 7.35141000e-1
3.25207033e2, 3.11549800, 7.28666000e-1
3.26276793e2, 3.10908400, 7.22397000e-1
3.27353614e2, 3.10282800, 7.16326000e-1
3.28437566e2, 3.09672800, 7.10439000e-1
3.29528721e2, 3.09078500, 7.04728000e-1
3.30627150e2, 3.08456200, 6.99292000e-1
3.31732927e2, 3.07892400, 6.93904000e-1
3.32846124e2, 3.07344000, 6.88662000e-1
3.33966818e2, 3.06810800, 6.83559000e-1
3.35095085e2, 3.06292700, 6.78587000e-1
3.36231000e2, 3.05789700, 6.73736000e-1
3.37374643e2, 3.05301500, 6.69000000e-1
3.38526092e2, 3.04827900, 6.64371000e-1
3.39685428e2, 3.04324600, 6.59961000e-1
3.40852732e2, 3.03878900, 6.55528000e-1
3.42028086e2, 3.03447200, 6.51182000e-1
3.43211575e2, 3.03029600, 6.46917000e-1
3.44403281e2, 3.02610600, 6.42762000e-1
3.45603293e2, 3.02220100, 6.38639000e-1
3.46811696e2, 3.01842900, 6.34578000e-1
3.48028579e2, 3.01463400, 6.30616000e-1
3.49254032e2, 3.01075900, 6.26651000e-1
3.50488145e2, 3.00737500, 6.22745000e-1
3.51731011e2, 3.00411600, 6.18880000e-1
3.52982723e2, 3.00098100, 6.15050000e-1
3.54243375e2, 2.99796700, 6.11251000e-1
3.55513065e2, 2.99507100, 6.07476000e-1
3.56791889e2, 2.99229200, 6.03722000e-1
3.58079946e2, 2.98962700, 5.99983000e-1
3.59377337e2, 2.98707300, 5.96255000e-1
3.60684164e2, 2.98462800, 5.92533000e-1
3.62000529e2, 2.98229000, 5.88811000e-1
3.63326539e2, 2.98005400, 5.85086000e-1
3.64662298e2, 2.97791900, 5.81352000e-1
3.66007915e2, 2.97588000, 5.77605000e-1
3.67363500e2, 2.97393500, 5.73841000e-1
3.68729164e2, 2.97207900, 5.70053000e-1
3.70105019e2, 2.97030900, 5.66238000e-1
3.71491180e2, 2.96861800, 5.62391000e-1
3.72887763e2, 2.96700300, 5.58507000e-1
3.74294887e2, 2.96545800, 5.54582000e-1
3.75712671e2, 2.96397600, 5.50611000e-1
3.77141236e2, 2.96254900, 5.46588000e-1
3.78580706e2, 2.96116900, 5.42511000e-1
3.80031207e2, 2.95982500, 5.38375000e-1
3.81492866e2, 2.95850600, 5.34177000e-1
3.82965811e2, 2.95719700, 5.29914000e-1
3.84450175e2, 2.95588200, 5.25585000e-1
3.85946090e2, 2.95453800, 5.21191000e-1
3.87453692e2, 2.95314000, 5.16735000e-1
3.88973118e2, 2.95165500, 5.12225000e-1
3.90504508e2, 2.95004300, 5.07680000e-1
3.92048004e2, 2.94825100, 5.03126000e-1
3.93603750e2, 2.94621000, 4.98614000e-1
3.95171893e2, 2.94383500, 4.94228000e-1
3.96752580e2, 2.94101700, 4.90113000e-1
3.98345964e2, 2.93762700, 4.86528000e-1
3.99952198e2, 2.93354600, 4.83936000e-1
4.01571437e2, 2.92827700, 4.83703000e-1
4.03203842e2, 2.92345800, 4.86533000e-1
4.04849572e2, 2.92126500, 4.94898000e-1
4.06508791e2, 2.92865600, 5.08533000e-1
4.08181667e2, 2.95304600, 5.16393000e-1
4.09868368e2, 2.98269900, 5.00577000e-1
4.11569067e2, 2.99377100, 4.69903000e-1
4.13283938e2, 2.98902200, 4.44653000e-1
4.15013159e2, 2.97919800, 4.27840000e-1
4.16756912e2, 2.97011300, 4.16772000e-1
4.18515380e2, 2.96224500, 4.08742000e-1
4.20288750e2, 2.95562000, 4.02381000e-1
4.22077213e2, 2.95004300, 3.96959000e-1
4.23880962e2, 2.94531000, 3.92073000e-1
4.25700193e2, 2.94125500, 3.87489000e-1
4.27535108e2, 2.93774900, 3.83066000e-1
4.29385909e2, 2.93469100, 3.78714000e-1
4.31252804e2, 2.93200600, 3.74372000e-1
4.33136005e2, 2.92963100, 3.69998000e-1
4.35035724e2, 2.92751600, 3.65559000e-1
4.36952181e2, 2.92562200, 3.61030000e-1
4.38885597e2, 2.92391300, 3.56393000e-1
4.40836200e2, 2.92235600, 3.51627000e-1
4.42804219e2, 2.92092400, 3.46719000e-1
4.44789888e2, 2.91958900, 3.41654000e-1
4.46793446e2, 2.91832400, 3.36417000e-1
4.48815136e2, 2.91710100, 3.30997000e-1
4.50855205e2, 2.91589000, 3.25379000e-1
4.52913904e2, 2.91465800, 3.19552000e-1
4.54991491e2, 2.91336800, 3.13504000e-1
4.57088226e2, 2.91197500, 3.07226000e-1
4.59204375e2, 2.91042700, 3.00711000e-1
4.61340209e2, 2.90865900, 2.93955000e-1
4.63496005e2, 2.90659000, 2.86963000e-1
4.65672042e2, 2.90411900, 2.79754000e-1
4.67868609e2, 2.90111200, 2.72369000e-1
4.70085995e2, 2.89673000, 2.65149000e-1
4.72324500e2, 2.89199600, 2.57790000e-1
4.74584426e2, 2.88600600, 2.50805000e-1
4.76866082e2, 2.87838000, 2.44752000e-1
4.79169783e2, 2.86872300, 2.40699000e-1
4.81495850e2, 2.85693100, 2.40699000e-1
4.83844610e2, 2.84439600, 2.48495000e-1
4.86216397e2, 2.83767100, 2.69065000e-1
4.88611552e2, 2.85345600, 3.00142000e-1
4.91030421e2, 2.90436000, 3.13226000e-1
4.93473358e2, 2.95608300, 2.76453000e-1
4.95940725e2, 2.96768900, 2.19159000e-1
4.98432890e2, 2.95241300, 1.75631000e-1
5.00950227e2, 2.93027500, 1.48085000e-1
5.03493122e2, 2.90857000, 1.30706000e-1
5.06061964e2, 2.88902800, 1.19219000e-1
5.08657154e2, 2.87171000, 1.11205000e-1
5.11279098e2, 2.85566500, 1.05187000e-1
5.13928213e2, 2.84139700, 1.00704000e-1
5.16604922e2, 2.82888700, 9.71430000e-2
5.19309660e2, 2.81741700, 9.42210000e-2
5.22042869e2, 2.80681100, 9.17590000e-2
5.24805000e2, 2.79692900, 8.96380000e-2
5.27596516e2, 2.78766400, 8.77750000e-2
5.30417888e2, 2.77892900, 8.61130000e-2
5.33269597e2, 2.77065300, 8.46100000e-2
5.36152135e2, 2.76278200, 8.32350000e-2
5.39066006e2, 2.75526700, 8.19650000e-2
5.42011721e2, 2.74807200, 8.07810000e-2
5.44989808e2, 2.74116200, 7.96710000e-2
5.48000801e2, 2.73451200, 7.86220000e-2
5.51045250e2, 2.72809600, 7.76270000e-2
5.54123715e2, 2.72189600, 7.66780000e-2
5.57236770e2, 2.71589300, 7.57690000e-2
5.60385000e2, 2.71007300, 7.48960000e-2
5.63569006e2, 2.70442200, 7.40550000e-2
5.66789400e2, 2.69892800, 7.32410000e-2
5.70046811e2, 2.69358100, 7.24540000e-2
5.73341879e2, 2.68837200, 7.16890000e-2
5.76675262e2, 2.68329100, 7.09460000e-2
5.80047632e2, 2.67833300, 7.02210000e-2
5.83459677e2, 2.67348800, 6.95150000e-2
5.86912101e2, 2.66875300, 6.88250000e-2
5.90405625e2, 2.66412000, 6.81500000e-2
5.93940988e2, 2.65958600, 6.74890000e-2
5.97518946e2, 2.65514400, 6.68420000e-2
6.01140273e2, 2.65079100, 6.62070000e-2
6.04805762e2, 2.64652400, 6.55830000e-2
6.08516227e2, 2.64233700, 6.49710000e-2
6.12272500e2, 2.63822800, 6.43690000e-2
6.16075435e2, 2.63419500, 6.37780000e-2
6.19925906e2, 2.63023300, 6.31950000e-2
6.23824812e2, 2.62633900, 6.26220000e-2
6.27773070e2, 2.62251300, 6.20570000e-2
6.31771624e2, 2.61875100, 6.15000000e-2
6.35821443e2, 2.61505100, 6.09520000e-2
6.39923516e2, 2.61141000, 6.04100000e-2
6.44078864e2, 2.60782800, 5.98770000e-2
6.48288530e2, 2.60430100, 5.93500000e-2
6.52553586e2, 2.60082900, 5.88300000e-2
6.56875133e2, 2.59741000, 5.83160000e-2
6.61254300e2, 2.59404200, 5.78090000e-2
6.65692249e2, 2.59072400, 5.73070000e-2
6.70190169e2, 2.58745300, 5.68120000e-2
6.74749286e2, 2.58423000, 5.63220000e-2
6.79370856e2, 2.58105300, 5.58380000e-2
6.84056173e2, 2.57792000, 5.53600000e-2
6.88806563e2, 2.57483000, 5.48860000e-2
6.93623392e2, 2.57178300, 5.44180000e-2
6.98508064e2, 2.56877700, 5.39550000e-2
7.03462022e2, 2.56581100, 5.34960000e-2
7.08486750e2, 2.56288500, 5.30420000e-2
7.13583777e2, 2.55999700, 5.25930000e-2
7.18754674e2, 2.55714700, 5.21480000e-2
7.24001059e2, 2.55390000, 5.16650000e-2
7.29324596e2, 2.55112400, 5.12290000e-2
7.34727000e2, 2.54838300, 5.07970000e-2
7.40210038e2, 2.54567600, 5.03700000e-2
7.45775527e2, 2.54300400, 4.99460000e-2
7.51425341e2, 2.54036400, 4.95270000e-2
7.57161412e2, 2.53775700, 4.91110000e-2
7.62985731e2, 2.53518200, 4.86990000e-2
7.68900349e2, 2.53263800, 4.82900000e-2
7.74907383e2, 2.53012500, 4.78860000e-2
7.81009016e2, 2.52764100, 4.74840000e-2
7.87207500e2, 2.52518800, 4.70860000e-2
7.93505160e2, 2.52276300, 4.66920000e-2
7.99904395e2, 2.52036700, 4.63010000e-2
8.06407683e2, 2.51799900, 4.59130000e-2
8.13017582e2, 2.51565800, 4.55280000e-2
8.19736736e2, 2.51334500, 4.51470000e-2
8.26567875e2, 2.51105900, 4.47680000e-2
8.33513824e2, 2.50879800, 4.43930000e-2
8.40577500e2, 2.50656300, 4.40200000e-2
8.47761923e2, 2.50435400, 4.36510000e-2
8.55070216e2, 2.50217000, 4.32840000e-2
8.62505609e2, 2.50001100, 4.29200000e-2
8.70071448e2, 2.49769100, 4.25580000e-2
8.77771195e2, 2.49558200, 4.21990000e-2
8.85608438e2, 2.49349600, 4.18440000e-2
8.93586892e2, 2.49143400, 4.14910000e-2
9.01710409e2, 2.48939500, 4.11400000e-2
9.09982982e2, 2.48737800, 4.07920000e-2
9.18408750e2, 2.48538400, 4.04470000e-2
9.26992010e2, 2.48341100, 4.01040000e-2
9.35737217e2, 2.48146000, 3.97630000e-2
9.44649000e2, 2.47953100, 3.94250000e-2
9.53732164e2, 2.47762300, 3.90890000e-2
9.62991699e2, 2.47573600, 3.87560000e-2
9.72432794e2, 2.47331300, 3.84210000e-2
9.82060842e2, 2.47147200, 3.80920000e-2
9.91881450e2, 2.46965100, 3.77650000e-2
1.00190045e3, 2.46785000, 3.74410000e-2
1.01212393e3, 2.46606800, 3.71180000e-2
1.02255820e3, 2.46430600, 3.67980000e-2
1.03320984e3, 2.46256300, 3.64800000e-2
1.04408574e3, 2.46083900, 3.61630000e-2
1.05519303e3, 2.45913300, 3.58490000e-2
1.06653919e3, 2.45744600, 3.55370000e-2
1.07813201e3, 2.45577700, 3.52270000e-2
1.08997962e3, 2.45412700, 3.49180000e-2
1.10209050e3, 2.45249400, 3.46120000e-2
1.11447354e3, 2.45087900, 3.43070000e-2
1.12713801e3, 2.44928200, 3.40050000e-2
1.14009362e3, 2.44770200, 3.37040000e-2
1.15335052e3, 2.44613900, 3.34040000e-2
1.16691935e3, 2.44459400, 3.31070000e-2
1.18081125e3, 2.44306500, 3.28110000e-2
1.19503789e3, 2.44155300, 3.25170000e-2
1.20961152e3, 2.44005700, 3.22250000e-2
1.22454500e3, 2.43857800, 3.19340000e-2
1.23985181e3, 2.43711500, 3.16450000e-2
1.25554614e3, 2.43566900, 3.13570000e-2
1.27164289e3, 2.43423800, 3.10720000e-2
1.28815773e3, 2.43282300, 3.07870000e-2
1.30510717e3, 2.43142400, 3.05040000e-2
1.32250860e3, 2.43004000, 3.02230000e-2
1.34038034e3, 2.42867200, 2.99430000e-2
1.35874171e3, 2.42731900, 2.96650000e-2
1.37761313e3, 2.42598100, 2.93880000e-2
1.39701613e3, 2.42465900, 2.91120000e-2
1.41697350e3, 2.42335100, 2.88380000e-2
1.43750935e3, 2.42205800, 2.85660000e-2
1.45864919e3, 2.42078000, 2.82940000e-2
1.48042008e3, 2.41951600, 2.80240000e-2
1.50285068e3, 2.41826700, 2.77560000e-2
1.52597146e3, 2.41703200, 2.74880000e-2
1.54981477e3, 2.41581200, 2.72220000e-2
1.57441500e3, 2.41460500, 2.69570000e-2
1.59980879e3, 2.41341300, 2.66940000e-2
1.62603516e3, 2.41223400, 2.64310000e-2
1.65313575e3, 2.41107000, 2.61700000e-2
1.68115500e3, 2.40991900, 2.59100000e-2
1.71014043e3, 2.40878200, 2.56510000e-2
1.74014290e3, 2.40765800, 2.53940000e-2
1.77121688e3, 2.40654800, 2.51370000e-2
